t,alpha,beta,theta,d,q
0.000000,0.000000,-1.000000,0.000000,0.000000,-1.000000
0.001000,0.309017,-0.951057,0.314159,0.000000,-1.000000
0.002000,0.587785,-0.809017,0.628319,0.000000,-1.000000
0.003000,0.809017,-0.587785,0.942478,0.000000,-1.000000
0.004000,0.951057,-0.309017,1.256637,0.000000,-1.000000
0.005000,1.000000,0.000000,1.570796,0.000000,-1.000000
0.006000,0.951056,0.309017,1.884956,0.000000,-1.000000
0.007000,0.809017,0.587785,2.199115,0.000000,-1.000000
0.008000,0.587785,0.809017,2.513274,0.000000,-1.000000
0.009000,0.309017,0.951057,2.827434,0.000000,-1.000000
0.010000,-0.000000,1.000000,3.141593,0.000000,-1.000000
0.011000,-0.309017,0.951056,3.455752,0.000000,-1.000000
0.012000,-0.587785,0.809017,3.769911,0.000000,-1.000000
0.013000,-0.809017,0.587785,4.084071,0.000000,-1.000000
0.014000,-0.951057,0.309017,4.398230,0.000000,-1.000000
0.015000,-1.000000,-0.000000,4.712389,0.000000,-1.000000
0.016000,-0.951056,-0.309017,5.026548,0.000000,-1.000000
0.017000,-0.809017,-0.587785,5.340708,0.000000,-1.000000
0.018000,-0.587785,-0.809017,5.654867,0.000000,-1.000000
0.019000,-0.309016,-0.951057,5.969027,0.000000,-1.000000
0.020000,0.000001,-1.000000,6.283186,0.000000,-1.000000
0.021000,0.309017,-0.951056,6.597345,0.000000,-1.000000
0.022000,0.587786,-0.809017,6.911504,0.000000,-1.000000
0.023000,0.809017,-0.587785,7.225664,0.000000,-1.000000
0.024000,0.951057,-0.309017,7.539823,0.000000,-1.000000
0.025000,1.000000,0.000000,7.853982,0.000000,-1.000000
0.026000,0.951056,0.309017,8.168141,0.000000,-1.000000
0.027000,0.809017,0.587786,8.482301,0.000000,-1.000000
0.028000,0.587785,0.809017,8.796460,0.000000,-1.000000
0.029000,0.309017,0.951056,9.110619,0.000000,-1.000000
0.030000,-0.000000,1.000000,9.424778,0.000000,-1.000000
0.031000,-0.309017,0.951056,9.738937,0.000000,-1.000000
0.032000,-0.587785,0.809017,10.053097,0.000000,-1.000000
0.033000,-0.809017,0.587785,10.367256,0.000000,-1.000000
0.034000,-0.951057,0.309016,10.681416,0.000000,-1.000000
0.035000,-1.000000,0.000000,10.995574,0.000000,-1.000000
0.036000,-0.951056,-0.309018,11.309734,0.000000,-1.000000
0.037000,-0.809017,-0.587785,11.623893,0.000000,-1.000000
0.038000,-0.587784,-0.809018,11.938053,0.000000,-1.000000
0.039000,-0.309017,-0.951057,12.252212,0.000000,-1.000000
0.040000,0.000001,-1.000000,12.566372,0.000000,-1.000000
0.041000,0.309017,-0.951056,12.880530,0.000000,-1.000000
0.042000,0.587786,-0.809017,13.194690,0.000000,-1.000000
0.043000,0.809017,-0.587785,13.508849,0.000000,-1.000000
0.044000,0.951057,-0.309016,13.823009,0.000000,-1.000000
0.045000,1.000000,0.000001,14.137168,0.000000,-1.000000
0.046000,0.951056,0.309018,14.451327,0.000000,-1.000000
0.047000,0.809017,0.587785,14.765486,0.000000,-1.000000
0.048000,0.587785,0.809017,15.079645,0.000000,-1.000000
0.049000,0.309016,0.951057,15.393805,0.000000,-1.000000
0.050000,-0.000001,1.000000,15.707964,0.000000,-1.000000
0.051000,-0.309018,0.951056,16.022123,0.000000,-1.000000
0.052000,-0.587786,0.809016,16.336283,0.000000,-1.000000
0.053000,-0.809018,0.587784,16.650442,0.000000,-1.000000
0.054000,-0.951057,0.309016,16.964602,0.000000,-1.000000
0.055000,-1.000000,-0.000001,17.278761,0.000000,-1.000000
0.056000,-0.951056,-0.309018,17.592920,0.000000,-1.000000
0.057000,-0.809016,-0.587786,17.907080,0.000000,-1.000000
0.058000,-0.587785,-0.809017,18.221237,0.000000,-1.000000
0.059000,-0.309015,-0.951057,18.535398,0.000000,-1.000000
0.060000,0.000000,-1.000000,18.849556,0.000000,-1.000000
0.061000,0.309019,-0.951056,19.163717,0.000000,-1.000000
0.062000,0.587785,-0.809017,19.477875,0.000000,-1.000000
0.063000,0.809017,-0.587785,19.792034,0.000000,-1.000000
0.064000,0.951057,-0.309016,20.106194,0.000000,-1.000000
0.065000,1.000000,0.000001,20.420353,0.000000,-1.000000
0.066000,0.951056,0.309018,20.734512,0.000000,-1.000000
0.067000,0.809016,0.587786,21.048672,0.000000,-1.000000
0.068000,0.587784,0.809018,21.362831,0.000000,-1.000000
0.069000,0.309016,0.951057,21.676991,0.000000,-1.000000
0.070000,0.000001,1.000000,21.991148,0.000000,-1.000000
0.071000,-0.309018,0.951056,22.305309,0.000000,-1.000000
0.072000,-0.587787,0.809016,22.619469,0.000000,-1.000000
0.073000,-0.809018,0.587784,22.933628,0.000000,-1.000000
0.074000,-0.951056,0.309017,23.247786,0.000000,-1.000000
0.075000,-1.000000,-0.000000,23.561945,0.000000,-1.000000
0.076000,-0.951056,-0.309019,23.876106,0.000000,-1.000000
0.077000,-0.809016,-0.587787,24.190266,0.000000,-1.000000
0.078000,-0.587785,-0.809017,24.504423,0.000000,-1.000000
0.079000,-0.309016,-0.951057,24.818583,0.000000,-1.000000
0.080000,0.000003,-1.000000,25.132744,0.000000,-1.000000
0.081000,0.309018,-0.951056,25.446901,0.000000,-1.000000
0.082000,0.587786,-0.809016,25.761061,0.000000,-1.000000
0.083000,0.809018,-0.587784,26.075220,0.000000,-1.000000
0.084000,0.951057,-0.309016,26.389380,0.000000,-1.000000
0.085000,1.000000,-0.000001,26.703537,0.000000,-1.000000
0.086000,0.951056,0.309018,27.017698,0.000000,-1.000000
0.087000,0.809016,0.587787,27.331858,0.000000,-1.000000
0.088000,0.587784,0.809018,27.646017,0.000000,-1.000000
0.089000,0.309017,0.951056,27.960175,0.000000,-1.000000
0.090000,-0.000002,1.000000,28.274336,0.000000,-1.000000
0.091000,-0.309019,0.951056,28.588495,0.000000,-1.000000
0.092000,-0.587787,0.809016,28.902655,0.000000,-1.000000
0.093000,-0.809017,0.587785,29.216812,0.000000,-1.000000
0.094000,-0.951057,0.309016,29.530972,0.000000,-1.000000
0.095000,-1.000000,-0.000003,29.845133,0.000000,-1.000000
0.096000,-0.951056,-0.309018,30.159290,0.000000,-1.000000
0.097000,-0.809016,-0.587786,30.473450,0.000000,-1.000000
0.098000,-0.587784,-0.809018,30.787609,0.000000,-1.000000
0.099000,-0.309016,-0.951057,31.101768,0.000000,-1.000000
0.100000,0.000001,-1.000000,31.415928,0.000000,-1.000000
0.101000,0.309018,-0.951056,31.730087,0.000000,-1.000000
0.102000,0.587787,-0.809016,32.044247,0.000000,-1.000000
0.103000,0.809018,-0.587784,32.358406,0.000000,-1.000000
0.104000,0.951057,-0.309015,32.672565,0.000000,-1.000000
0.105000,1.000000,0.000002,32.986725,0.000000,-1.000000
0.106000,0.951056,0.309019,33.300884,0.000000,-1.000000
0.107000,0.809016,0.587787,33.615044,0.000000,-1.000000
0.108000,0.587783,0.809018,33.929203,0.000000,-1.000000
0.109000,0.309015,0.951057,34.243362,0.000000,-1.000000
0.110000,-0.000003,1.000000,34.557522,0.000000,-1.000000
0.111000,-0.309020,0.951056,34.871681,0.000000,-1.000000
0.112000,-0.587788,0.809015,35.185841,0.000000,-1.000000
0.113000,-0.809019,0.587783,35.500000,0.000000,-1.000000
0.114000,-0.951057,0.309014,35.814159,0.000000,-1.000000
0.115000,-1.000000,0.000001,36.128315,0.000000,-1.000000
0.116000,-0.951057,-0.309017,36.442474,0.000000,-1.000000
0.117000,-0.809015,-0.587788,36.756638,0.000000,-1.000000
0.118000,-0.587782,-0.809019,37.070797,0.000000,-1.000000
0.119000,-0.309017,-0.951056,37.384953,0.000000,-1.000000
0.120000,0.000000,-1.000000,37.699112,0.000000,-1.000000
0.121000,0.309021,-0.951055,38.013275,0.000000,-1.000000
0.122000,0.587789,-0.809015,38.327435,0.000000,-1.000000
0.123000,0.809017,-0.587785,38.641590,0.000000,-1.000000
0.124000,0.951057,-0.309016,38.955750,0.000000,-1.000000
0.125000,1.000000,0.000001,39.269909,0.000000,-1.000000
0.126000,0.951056,0.309018,39.584068,0.000000,-1.000000
0.127000,0.809016,0.587786,39.898228,0.000000,-1.000000
0.128000,0.587784,0.809018,40.212387,0.000000,-1.000000
0.129000,0.309016,0.951057,40.526546,0.000000,-1.000000
0.130000,-0.000001,1.000000,40.840706,0.000000,-1.000000
0.131000,-0.309022,0.951055,41.154869,0.000000,-1.000000
0.132000,-0.587787,0.809016,41.469025,0.000000,-1.000000
0.133000,-0.809018,0.587784,41.783184,0.000000,-1.000000
0.134000,-0.951057,0.309015,42.097343,0.000000,-1.000000
0.135000,-1.000000,-0.000002,42.411503,0.000000,-1.000000
0.136000,-0.951056,-0.309019,42.725662,0.000000,-1.000000
0.137000,-0.809016,-0.587787,43.039822,0.000000,-1.000000
0.138000,-0.587783,-0.809018,43.353981,0.000000,-1.000000
0.139000,-0.309015,-0.951057,43.668140,0.000000,-1.000000
0.140000,-0.000001,-1.000000,43.982296,0.000000,-1.000000
0.141000,0.309016,-0.951057,44.296455,0.000000,-1.000000
0.142000,0.587788,-0.809015,44.610619,0.000000,-1.000000
0.143000,0.809019,-0.587783,44.924778,0.000000,-1.000000
0.144000,0.951057,-0.309014,45.238937,0.000000,-1.000000
0.145000,1.000000,0.000003,45.553097,0.000000,-1.000000
0.146000,0.951055,0.309020,45.867256,0.000000,-1.000000
0.147000,0.809017,0.587785,46.181412,0.000000,-1.000000
0.148000,0.587785,0.809017,46.495571,0.000000,-1.000000
0.149000,0.309017,0.951057,46.809731,0.000000,-1.000000
0.150000,-0.000000,1.000000,47.123890,0.000000,-1.000000
0.151000,-0.309021,0.951055,47.438053,0.000000,-1.000000
0.152000,-0.587789,0.809015,47.752213,0.000000,-1.000000
0.153000,-0.809020,0.587782,48.066372,0.000000,-1.000000
0.154000,-0.951058,0.309013,48.380531,0.000000,-1.000000
0.155000,-1.000000,-0.000001,48.694687,0.000000,-1.000000
0.156000,-0.951056,-0.309018,49.008846,0.000000,-1.000000
0.157000,-0.809016,-0.587786,49.323006,0.000000,-1.000000
0.158000,-0.587784,-0.809018,49.637165,0.000000,-1.000000
0.159000,-0.309016,-0.951057,49.951324,0.000000,-1.000000
0.160000,0.000005,-1.000000,50.265488,0.000000,-1.000000
0.161000,0.309022,-0.951055,50.579647,0.000000,-1.000000
0.162000,0.587787,-0.809016,50.893803,0.000000,-1.000000
0.163000,0.809018,-0.587784,51.207962,0.000000,-1.000000
0.164000,0.951057,-0.309015,51.522121,0.000000,-1.000000
0.165000,1.000000,0.000002,51.836281,0.000000,-1.000000
0.166000,0.951056,0.309019,52.150440,0.000000,-1.000000
0.167000,0.809016,0.587787,52.464600,0.000000,-1.000000
0.168000,0.587783,0.809018,52.778759,0.000000,-1.000000
0.169000,0.309011,0.951059,53.092922,0.000000,-1.000000
0.170000,0.000001,1.000000,53.407074,0.000000,-1.000000
0.171000,-0.309020,0.951056,53.721237,0.000000,-1.000000
0.172000,-0.587788,0.809015,54.035397,0.000000,-1.000000
0.173000,-0.809019,0.587783,54.349556,0.000000,-1.000000
0.174000,-0.951057,0.309014,54.663715,0.000000,-1.000000
0.175000,-1.000000,-0.000003,54.977875,0.000000,-1.000000
0.176000,-0.951055,-0.309020,55.292034,0.000000,-1.000000
0.177000,-0.809017,-0.587785,55.606190,0.000000,-1.000000
0.178000,-0.587785,-0.809017,55.920349,0.000000,-1.000000
0.179000,-0.309017,-0.951057,56.234509,0.000000,-1.000000
0.180000,0.000004,-1.000000,56.548672,0.000000,-1.000000
0.181000,0.309021,-0.951055,56.862831,0.000000,-1.000000
0.182000,0.587789,-0.809014,57.176991,0.000000,-1.000000
0.183000,0.809020,-0.587782,57.491150,0.000000,-1.000000
0.184000,0.951058,-0.309013,57.805309,0.000000,-1.000000
0.185000,1.000000,0.000001,58.119465,0.000000,-1.000000
0.186000,0.951056,0.309018,58.433624,0.000000,-1.000000
0.187000,0.809016,0.587786,58.747784,0.000000,-1.000000
0.188000,0.587784,0.809018,59.061943,0.000000,-1.000000
0.189000,0.309012,0.951058,59.376106,0.000000,-1.000000
0.190000,-0.000005,1.000000,59.690266,0.000000,-1.000000
0.191000,-0.309022,0.951055,60.004425,0.000000,-1.000000
0.192000,-0.587787,0.809016,60.318581,0.000000,-1.000000
0.193000,-0.809018,0.587784,60.632740,0.000000,-1.000000
0.194000,-0.951057,0.309015,60.946899,0.000000,-1.000000
0.195000,-1.000000,-0.000002,61.261059,0.000000,-1.000000
0.196000,-0.951056,-0.309019,61.575218,0.000000,-1.000000
0.197000,-0.809016,-0.587787,61.889378,0.000000,-1.000000
0.198000,-0.587783,-0.809018,62.203537,0.000000,-1.000000
0.199000,-0.309011,-0.951059,62.517700,0.000000,-1.000000
0.200000,0.000003,-1.000000,62.831856,0.000000,-1.000000
0.201000,0.309020,-0.951056,63.146015,0.000000,-1.000000
0.202000,0.587788,-0.809015,63.460175,0.000000,-1.000000
0.203000,0.809019,-0.587783,63.774334,0.000000,-1.000000
0.204000,0.951057,-0.309014,64.088493,0.000000,-1.000000
0.205000,1.000000,0.000007,64.402657,0.000000,-1.000000
0.206000,0.951055,0.309020,64.716812,0.000000,-1.000000
0.207000,0.809013,0.587791,65.030975,0.000000,-1.000000
0.208000,0.587782,0.809019,65.345131,0.000000,-1.000000
0.209000,0.309017,0.951057,65.659286,0.000000,-1.000000
0.210000,-0.000004,1.000000,65.973450,0.000000,-1.000000
0.211000,-0.309017,0.951056,66.287605,0.000000,-1.000000
0.212000,-0.587789,0.809014,66.601768,0.000000,-1.000000
0.213000,-0.809022,0.587779,66.915932,0.000000,-1.000000
0.214000,-0.951058,0.309013,67.230087,0.000000,-1.000000
0.215000,-1.000000,-0.000001,67.544243,0.000000,-1.000000
0.216000,-0.951055,-0.309022,67.858406,0.000000,-1.000000
0.217000,-0.809016,-0.587786,68.172562,0.000000,-1.000000
0.218000,-0.587781,-0.809020,68.486725,0.000000,-1.000000
0.219000,-0.309016,-0.951057,68.800880,0.000000,-1.000000
0.220000,0.000005,-1.000000,69.115044,0.000000,-1.000000
0.221000,0.309018,-0.951056,69.429199,0.000000,-1.000000
0.222000,0.587790,-0.809014,69.743362,0.000000,-1.000000
0.223000,0.809018,-0.587784,70.057518,0.000000,-1.000000
0.224000,0.951058,-0.309012,70.371681,0.000000,-1.000000
0.225000,1.000000,0.000002,70.685837,0.000000,-1.000000
0.226000,0.951055,0.309023,71.000000,0.000000,-1.000000
0.227000,0.809016,0.587787,71.314156,0.000000,-1.000000
0.228000,0.587780,0.809021,71.628319,0.000000,-1.000000
0.229000,0.309015,0.951057,71.942474,0.000000,-1.000000
0.230000,0.000001,1.000000,72.256630,0.000000,-1.000000
0.231000,-0.309020,0.951056,72.570793,0.000000,-1.000000
0.232000,-0.587785,0.809017,72.884949,0.000000,-1.000000
0.233000,-0.809019,0.587783,73.199112,0.000000,-1.000000
0.234000,-0.951059,0.309010,73.513275,0.000000,-1.000000
0.235000,-1.000000,-0.000003,73.827431,0.000000,-1.000000
0.236000,-0.951054,-0.309024,74.141594,0.000000,-1.000000
0.237000,-0.809015,-0.587788,74.455750,0.000000,-1.000000
0.238000,-0.587785,-0.809017,74.769905,0.000000,-1.000000
0.239000,-0.309013,-0.951058,75.084068,0.000000,-1.000000
0.240000,0.000000,-1.000000,75.398224,0.000000,-1.000000
0.241000,0.309021,-0.951055,75.712387,0.000000,-1.000000
0.242000,0.587792,-0.809012,76.026550,0.000000,-1.000000
0.243000,0.809020,-0.587782,76.340706,0.000000,-1.000000
0.244000,0.951059,-0.309009,76.654869,0.000000,-1.000000
0.245000,1.000000,0.000005,76.969025,0.000000,-1.000000
0.246000,0.951056,0.309018,77.283180,0.000000,-1.000000
0.247000,0.809014,0.587789,77.597343,0.000000,-1.000000
0.248000,0.587784,0.809018,77.911499,0.000000,-1.000000
0.249000,0.309012,0.951058,78.225662,0.000000,-1.000000
0.250000,-0.000001,1.000000,78.539818,0.000000,-1.000000
0.251000,-0.309022,0.951055,78.853981,0.000000,-1.000000
0.252000,-0.587787,0.809016,79.168137,0.000000,-1.000000
0.253000,-0.809020,0.587781,79.482300,0.000000,-1.000000
0.254000,-0.951057,0.309015,79.796455,0.000000,-1.000000
0.255000,-1.000000,-0.000006,80.110619,0.000000,-1.000000
0.256000,-0.951056,-0.309019,80.424774,0.000000,-1.000000
0.257000,-0.809018,-0.587784,80.738930,0.000000,-1.000000
0.258000,-0.587783,-0.809018,81.053093,0.000000,-1.000000
0.259000,-0.309018,-0.951056,81.367249,0.000000,-1.000000
0.260000,0.000003,-1.000000,81.681412,0.000000,-1.000000
0.261000,0.309016,-0.951057,81.995567,0.000000,-1.000000
0.262000,0.587794,-0.809011,82.309738,0.000000,-1.000000
0.263000,0.809021,-0.587780,82.623894,0.000000,-1.000000
0.264000,0.951058,-0.309014,82.938049,0.000000,-1.000000
0.265000,1.000000,0.000007,83.252213,0.000000,-1.000000
0.266000,0.951055,0.309020,83.566368,0.000000,-1.000000
0.267000,0.809013,0.587791,83.880531,0.000000,-1.000000
0.268000,0.587782,0.809019,84.194687,0.000000,-1.000000
0.269000,0.309010,0.951059,84.508850,0.000000,-1.000000
0.270000,-0.000004,1.000000,84.823006,0.000000,-1.000000
0.271000,-0.309025,0.951054,85.137169,0.000000,-1.000000
0.272000,-0.587789,0.809014,85.451324,0.000000,-1.000000
0.273000,-0.809017,0.587785,85.765480,0.000000,-1.000000
0.274000,-0.951058,0.309013,86.079643,0.000000,-1.000000
0.275000,-1.000000,-0.000001,86.393799,0.000000,-1.000000
0.276000,-0.951055,-0.309022,86.707962,0.000000,-1.000000
0.277000,-0.809016,-0.587786,87.022118,0.000000,-1.000000
0.278000,-0.587781,-0.809020,87.336281,0.000000,-1.000000
0.279000,-0.309016,-0.951057,87.650436,0.000000,-1.000000
0.280000,-0.000002,-1.000000,87.964592,0.000000,-1.000000
0.281000,0.309026,-0.951054,88.278763,0.000000,-1.000000
0.282000,0.587784,-0.809018,88.592911,0.000000,-1.000000
0.283000,0.809023,-0.587778,88.907082,0.000000,-1.000000
0.284000,0.951058,-0.309011,89.221237,0.000000,-1.000000
0.285000,1.000000,0.000010,89.535400,0.000000,-1.000000
0.286000,0.951055,0.309023,89.849556,0.000000,-1.000000
0.287000,0.809016,0.587787,90.163712,0.000000,-1.000000
0.288000,0.587780,0.809021,90.477875,0.000000,-1.000000
0.289000,0.309014,0.951057,90.792030,0.000000,-1.000000
0.290000,-0.000007,1.000000,91.106194,0.000000,-1.000000
0.291000,-0.309020,0.951056,91.420349,0.000000,-1.000000
0.292000,-0.587791,0.809013,91.734512,0.000000,-1.000000
0.293000,-0.809019,0.587783,92.048668,0.000000,-1.000000
0.294000,-0.951056,0.309018,92.362823,0.000000,-1.000000
0.295000,-1.000000,-0.000003,92.676987,0.000000,-1.000000
0.296000,-0.951057,-0.309017,92.991142,0.000000,-1.000000
0.297000,-0.809015,-0.587788,93.305305,0.000000,-1.000000
0.298000,-0.587785,-0.809017,93.619461,0.000000,-1.000000
0.299000,-0.309006,-0.951060,93.933632,0.000000,-1.000000
0.300000,0.000000,-1.000000,94.247780,0.000000,-1.000000
0.301000,0.309028,-0.951053,94.561951,0.000000,-1.000000
0.302000,0.587792,-0.809012,94.876106,0.000000,-1.000000
0.303000,0.809020,-0.587782,95.190262,0.000000,-1.000000
0.304000,0.951059,-0.309009,95.504425,0.000000,-1.000000
0.305000,1.000000,0.000005,95.818581,0.000000,-1.000000
0.306000,0.951054,0.309025,96.132744,0.000000,-1.000000
0.307000,0.809014,0.587789,96.446899,0.000000,-1.000000
0.308000,0.587778,0.809022,96.761063,0.000000,-1.000000
0.309000,0.309012,0.951058,97.075218,0.000000,-1.000000
0.310000,-0.000002,1.000000,97.389374,0.000000,-1.000000
0.311000,-0.309022,0.951055,97.703537,0.000000,-1.000000
0.312000,-0.587787,0.809016,98.017693,0.000000,-1.000000
0.313000,-0.809020,0.587781,98.331856,0.000000,-1.000000
0.314000,-0.951057,0.309015,98.646011,0.000000,-1.000000
0.315000,-1.000000,-0.000006,98.960175,0.000000,-1.000000
0.316000,-0.951056,-0.309019,99.274330,0.000000,-1.000000
0.317000,-0.809018,-0.587784,99.588486,0.000000,-1.000000
0.318000,-0.587783,-0.809018,99.902649,0.000000,-1.000000
0.319000,-0.309018,-0.951056,100.216805,0.000000,-1.000000
0.320000,0.000010,-1.000000,100.530975,0.000000,-1.000000
0.321000,0.309023,-0.951054,100.845131,0.000000,-1.000000
0.322000,0.587794,-0.809011,101.159294,0.000000,-1.000000
0.323000,0.809021,-0.587780,101.473450,0.000000,-1.000000
0.324000,0.951058,-0.309014,101.787605,0.000000,-1.000000
0.325000,1.000000,0.000007,102.101768,0.000000,-1.000000
0.326000,0.951055,0.309020,102.415924,0.000000,-1.000000
0.327000,0.809013,0.587791,102.730087,0.000000,-1.000000
0.328000,0.587782,0.809019,103.044243,0.000000,-1.000000
0.329000,0.309010,0.951059,103.358406,0.000000,-1.000000
0.330000,-0.000004,1.000000,103.672562,0.000000,-1.000000
0.331000,-0.309025,0.951054,103.986725,0.000000,-1.000000
0.332000,-0.587789,0.809014,104.300880,0.000000,-1.000000
0.333000,-0.809017,0.587785,104.615036,0.000000,-1.000000
0.334000,-0.951058,0.309013,104.929199,0.000000,-1.000000
0.335000,-1.000000,-0.000001,105.243355,0.000000,-1.000000
0.336000,-0.951055,-0.309022,105.557518,0.000000,-1.000000
0.337000,-0.809016,-0.587786,105.871674,0.000000,-1.000000
0.338000,-0.587775,-0.809024,106.185844,0.000000,-1.000000
0.339000,-0.309016,-0.951057,106.499992,0.000000,-1.000000
0.340000,-0.000002,-1.000000,106.814148,0.000000,-1.000000
0.341000,0.309026,-0.951054,107.128319,0.000000,-1.000000
0.342000,0.587790,-0.809014,107.442474,0.000000,-1.000000
0.343000,0.809023,-0.587777,107.756638,0.000000,-1.000000
0.344000,0.951058,-0.309011,108.070793,0.000000,-1.000000
0.345000,1.000000,0.000010,108.384956,0.000000,-1.000000
0.346000,0.951055,0.309023,108.699112,0.000000,-1.000000
0.347000,0.809016,0.587787,109.013268,0.000000,-1.000000
0.348000,0.587780,0.809021,109.327431,0.000000,-1.000000
0.349000,0.309014,0.951057,109.641586,0.000000,-1.000000
